Frecuencia(Hz)	Magnitud(V)
0.00	0.00113
1.85	0.00090
3.69	0.00038
5.54	0.00013
7.39	0.00042
9.23	0.00050
11.08	0.00047
12.93	0.00045
14.77	0.00045
16.62	0.00046
18.47	0.00047
20.32	0.00048
22.16	0.00049
24.01	0.00051
25.86	0.00051
27.70	0.00050
29.55	0.00049
31.40	0.00047
33.24	0.00044
35.09	0.00045
36.94	0.00051
38.78	0.00057
40.63	0.00059
42.48	0.00054
44.32	0.00048
46.17	0.00045
48.02	0.00047
49.86	0.00052
51.71	0.00062
53.56	0.00072
55.41	0.00075
57.25	0.00071
59.10	0.00069
60.95	0.00066
62.79	0.00057
64.64	0.00052
66.49	0.00068
68.33	0.00093
70.18	0.00097
72.03	0.00083
73.87	0.00082
75.72	0.00098
77.57	0.00099
79.41	0.00094
81.26	0.00145
83.11	0.00236
84.95	0.00222
86.80	0.00098
88.65	0.00161
90.50	0.00537
92.34	0.00435
94.19	0.01708
96.04	0.06527
97.88	0.12283
99.73	0.15596
101.58	0.14247
103.42	0.09217
105.27	0.03758
107.12	0.00527
108.96	0.00226
110.81	0.00123
112.66	0.00325
114.50	0.00218
116.35	0.00114
118.20	0.00129
120.04	0.00137
121.89	0.00083
123.74	0.00041
125.58	0.00064
127.43	0.00098
129.28	0.00098
131.13	0.00081
132.97	0.00069
134.82	0.00056
136.67	0.00037
138.51	0.00029
140.36	0.00038
142.21	0.00050
144.05	0.00052
145.90	0.00049
147.75	0.00045
149.59	0.00038
151.44	0.00026
153.29	0.00021
155.13	0.00028
156.98	0.00035
158.83	0.00034
160.67	0.00029
162.52	0.00025
164.37	0.00020
166.22	0.00012
168.06	0.00013
169.91	0.00027
171.76	0.00037
173.60	0.00039
175.45	0.00037
177.30	0.00036
179.14	0.00033
180.99	0.00029
182.84	0.00027
184.68	0.00031
186.53	0.00034
188.38	0.00035
190.22	0.00033
192.07	0.00031
193.92	0.00026
195.76	0.00019
197.61	0.00010
199.46	0.00006
201.31	0.00009
203.15	0.00010
205.00	0.00012
206.85	0.00015
208.69	0.00017
210.54	0.00014
212.39	0.00010
214.23	0.00012
216.08	0.00017
217.93	0.00020
219.77	0.00020
221.62	0.00018
223.47	0.00014
225.31	0.00010
227.16	0.00010
229.01	0.00015
230.85	0.00019
232.70	0.00020
234.55	0.00021
236.40	0.00022
238.24	0.00020
240.09	0.00019
241.94	0.00018
243.78	0.00019
245.63	0.00020
247.48	0.00020
249.32	0.00018
251.17	0.00014
253.02	0.00011
254.86	0.00009
256.71	0.00009
258.56	0.00011
260.40	0.00013
262.25	0.00014
264.10	0.00014
265.94	0.00014
267.79	0.00011
269.64	0.00006
271.49	0.00001
273.33	0.00006
275.18	0.00010
277.03	0.00013
278.87	0.00014
280.72	0.00012
282.57	0.00008
284.41	0.00004
286.26	0.00002
288.11	0.00002
289.95	0.00004
291.80	0.00007
293.65	0.00009
295.49	0.00013
297.34	0.00017
299.19	0.00019
301.03	0.00019
302.88	0.00017
304.73	0.00014
306.58	0.00011
308.42	0.00009
310.27	0.00007
312.12	0.00008
313.96	0.00010
315.81	0.00008
317.66	0.00004
319.50	0.00006
321.35	0.00010
323.20	0.00010
325.04	0.00009
326.89	0.00008
328.74	0.00007
330.58	0.00006
332.43	0.00008
334.28	0.00010
336.12	0.00008
337.97	0.00004
339.82	0.00002
341.67	0.00004
343.51	0.00002
345.36	0.00006
347.21	0.00013
349.05	0.00015
350.90	0.00011
352.75	0.00008
354.59	0.00012
356.44	0.00015
358.29	0.00013
360.13	0.00007
361.98	0.00010
363.83	0.00017
365.67	0.00020
367.52	0.00019
369.37	0.00015
371.21	0.00011
373.06	0.00008
374.91	0.00006
376.75	0.00004
378.60	0.00005
380.45	0.00008
382.30	0.00011
384.14	0.00012
385.99	0.00010
387.84	0.00006
389.68	0.00001
391.53	0.00008
393.38	0.00012
395.22	0.00013
397.07	0.00012
398.92	0.00013
400.76	0.00012
402.61	0.00008
404.46	0.00009
406.30	0.00014
408.15	0.00014
410.00	0.00010
411.84	0.00007
413.69	0.00011
415.54	0.00014
417.39	0.00012
419.23	0.00007
421.08	0.00005
422.93	0.00008
424.77	0.00010
426.62	0.00009
428.47	0.00007
430.31	0.00005
432.16	0.00004
434.01	0.00003
435.85	0.00005
437.70	0.00010
439.55	0.00015
441.39	0.00017
443.24	0.00015
445.09	0.00013
446.93	0.00014
448.78	0.00017
450.63	0.00017
452.48	0.00014
454.32	0.00009
456.17	0.00008
458.02	0.00010
459.86	0.00012
461.71	0.00014
463.56	0.00014
465.40	0.00014
467.25	0.00014
469.10	0.00013
470.94	0.00009
472.79	0.00005
474.64	0.00005
476.48	0.00005
478.33	0.00001
480.18	0.00006
482.02	0.00015
483.87	0.00021
485.72	0.00021
487.57	0.00016
489.41	0.00010
491.26	0.00006
493.11	0.00006
494.95	0.00005
496.80	0.00004
498.65	0.00007
500.49	0.00011
502.34	0.00009
504.19	0.00004
506.03	0.00003
507.88	0.00008
509.73	0.00009
511.57	0.00008
513.42	0.00006
515.27	0.00004
517.11	0.00004
518.96	0.00005
520.81	0.00006
522.66	0.00007
524.50	0.00010
526.35	0.00012
528.20	0.00011
530.04	0.00009
531.89	0.00007
533.74	0.00007
535.58	0.00008
537.43	0.00009
539.28	0.00010
541.12	0.00010
542.97	0.00009
544.82	0.00006
546.66	0.00003
548.51	0.00001
550.36	0.00002
552.20	0.00004
554.05	0.00005
555.90	0.00004
557.75	0.00002
559.59	0.00000
561.44	0.00002
563.29	0.00003
565.13	0.00004
566.98	0.00006
568.83	0.00009
570.67	0.00011
572.52	0.00011
574.37	0.00008
576.21	0.00004
578.06	0.00002
579.91	0.00006
581.75	0.00007
583.60	0.00006
585.45	0.00004
587.29	0.00003
589.14	0.00001
590.99	0.00004
592.84	0.00006
594.68	0.00007
596.53	0.00008
598.38	0.00010
600.22	0.00013
602.07	0.00013
603.92	0.00012
605.76	0.00011
607.61	0.00009
609.46	0.00007
611.30	0.00006
613.15	0.00005
615.00	0.00007
616.84	0.00010
618.69	0.00012
620.54	0.00012
622.38	0.00011
624.23	0.00008
626.08	0.00005
627.92	0.00003
629.77	0.00005
631.62	0.00006
633.47	0.00006
635.31	0.00005
637.16	0.00004
639.01	0.00007
640.85	0.00010
642.70	0.00010
644.55	0.00009
646.39	0.00008
648.24	0.00009
650.09	0.00007
651.93	0.00004
653.78	0.00003
655.63	0.00002
657.47	0.00002
659.32	0.00004
661.17	0.00006
663.01	0.00008
664.86	0.00010
666.71	0.00011
668.56	0.00010
670.40	0.00009
672.25	0.00005
674.10	0.00002
675.94	0.00004
677.79	0.00008
679.64	0.00009
681.48	0.00010
683.33	0.00014
685.18	0.00015
687.02	0.00012
688.87	0.00006
690.72	0.00002
692.56	0.00004
694.41	0.00005
696.26	0.00006
698.10	0.00008
699.95	0.00010
701.80	0.00010
703.65	0.00009
705.49	0.00006
707.34	0.00005
709.19	0.00008
711.03	0.00010
712.88	0.00010
714.73	0.00009
716.57	0.00010
718.42	0.00011
720.27	0.00011
722.11	0.00009
723.96	0.00007
725.81	0.00006
727.65	0.00005
729.50	0.00004
731.35	0.00006
733.19	0.00009
735.04	0.00011
736.89	0.00011
738.74	0.00009
740.58	0.00006
742.43	0.00004
744.28	0.00003
746.12	0.00002
747.97	0.00004
749.82	0.00008
751.66	0.00012
753.51	0.00014
755.36	0.00011
757.20	0.00006
759.05	0.00001
760.90	0.00006
762.74	0.00008
764.59	0.00009
766.44	0.00010
768.28	0.00013
770.13	0.00016
771.98	0.00016
773.83	0.00012
775.67	0.00009
777.52	0.00010
779.37	0.00012
781.21	0.00014
783.06	0.00017
784.91	0.00019
786.75	0.00017
788.60	0.00015
790.45	0.00012
792.29	0.00010
794.14	0.00007
795.99	0.00006
797.83	0.00009
799.68	0.00013
801.53	0.00014
803.37	0.00014
805.22	0.00012
807.07	0.00009
808.92	0.00006
810.76	0.00004
812.61	0.00006
814.46	0.00008
816.30	0.00009
818.15	0.00009
820.00	0.00009
821.84	0.00008
823.69	0.00007
825.54	0.00009
827.38	0.00012
829.23	0.00012
831.08	0.00009
832.92	0.00005
834.77	0.00004
836.62	0.00006
838.46	0.00008
840.31	0.00008
842.16	0.00005
844.00	0.00002
845.85	0.00002
847.70	0.00005
849.55	0.00006
851.39	0.00006
853.24	0.00004
855.09	0.00003
856.93	0.00001
858.78	0.00001
860.63	0.00005
862.47	0.00009
864.32	0.00012
866.17	0.00010
868.01	0.00006
869.86	0.00002
871.71	0.00003
873.55	0.00005
875.40	0.00005
877.25	0.00004
879.09	0.00004
880.94	0.00005
882.79	0.00005
884.64	0.00003
886.48	0.00000
888.33	0.00003
890.18	0.00003
892.02	0.00006
893.87	0.00011
895.72	0.00015
897.56	0.00015
899.41	0.00014
901.26	0.00012
903.10	0.00010
904.95	0.00008
906.80	0.00004
908.64	0.00000
910.49	0.00002
912.34	0.00003
914.18	0.00004
916.03	0.00004
917.88	0.00004
919.73	0.00008
921.57	0.00011
923.42	0.00013
925.27	0.00014
927.11	0.00012
928.96	0.00009
930.81	0.00005
932.65	0.00006
934.50	0.00009
936.35	0.00011
938.19	0.00008
940.04	0.00003
941.89	0.00002
943.73	0.00003
